 TITLE=RHEsVARIABLES=="X","DENSITY"
 ZONE I=         400
  0.12500E-02  0.99654E+00
  0.37500E-02  0.99543E+00
  0.62500E-02  0.99436E+00
  0.87500E-02  0.99332E+00
  0.11250E-01  0.99228E+00
  0.13750E-01  0.99124E+00
  0.16250E-01  0.99020E+00
  0.18750E-01  0.98916E+00
  0.21250E-01  0.98811E+00
  0.23750E-01  0.98705E+00
  0.26250E-01  0.98598E+00
  0.28750E-01  0.98490E+00
  0.31250E-01  0.98380E+00
  0.33750E-01  0.98269E+00
  0.36250E-01  0.98157E+00
  0.38750E-01  0.98043E+00
  0.41250E-01  0.97927E+00
  0.43750E-01  0.97809E+00
  0.46250E-01  0.97690E+00
  0.48750E-01  0.97568E+00
  0.51250E-01  0.97444E+00
  0.53750E-01  0.97318E+00
  0.56250E-01  0.97190E+00
  0.58750E-01  0.97059E+00
  0.61250E-01  0.96925E+00
  0.63750E-01  0.96789E+00
  0.66250E-01  0.96649E+00
  0.68750E-01  0.96507E+00
  0.71250E-01  0.96362E+00
  0.73750E-01  0.96214E+00
  0.76250E-01  0.96063E+00
  0.78750E-01  0.95909E+00
  0.81250E-01  0.95751E+00
  0.83750E-01  0.95590E+00
  0.86250E-01  0.95425E+00
  0.88750E-01  0.95257E+00
  0.91250E-01  0.95084E+00
  0.93750E-01  0.94909E+00
  0.96250E-01  0.94729E+00
  0.98750E-01  0.94546E+00
  0.10125E+00  0.94358E+00
  0.10375E+00  0.94166E+00
  0.10625E+00  0.93971E+00
  0.10875E+00  0.93771E+00
  0.11125E+00  0.93567E+00
  0.11375E+00  0.93358E+00
  0.11625E+00  0.93145E+00
  0.11875E+00  0.92928E+00
  0.12125E+00  0.92706E+00
  0.12375E+00  0.92480E+00
  0.12625E+00  0.92249E+00
  0.12875E+00  0.92013E+00
  0.13125E+00  0.91773E+00
  0.13375E+00  0.91528E+00
  0.13625E+00  0.91278E+00
  0.13875E+00  0.91023E+00
  0.14125E+00  0.90763E+00
  0.14375E+00  0.90499E+00
  0.14625E+00  0.90229E+00
  0.14875E+00  0.89954E+00
  0.15125E+00  0.89675E+00
  0.15375E+00  0.89390E+00
  0.15625E+00  0.89100E+00
  0.15875E+00  0.88805E+00
  0.16125E+00  0.88504E+00
  0.16375E+00  0.88199E+00
  0.16625E+00  0.87888E+00
  0.16875E+00  0.87572E+00
  0.17125E+00  0.87251E+00
  0.17375E+00  0.86925E+00
  0.17625E+00  0.86593E+00
  0.17875E+00  0.86256E+00
  0.18125E+00  0.85914E+00
  0.18375E+00  0.85566E+00
  0.18625E+00  0.85213E+00
  0.18875E+00  0.84855E+00
  0.19125E+00  0.84491E+00
  0.19375E+00  0.84122E+00
  0.19625E+00  0.83748E+00
  0.19875E+00  0.83368E+00
  0.20125E+00  0.82983E+00
  0.20375E+00  0.82593E+00
  0.20625E+00  0.82197E+00
  0.20875E+00  0.81797E+00
  0.21125E+00  0.81391E+00
  0.21375E+00  0.80979E+00
  0.21625E+00  0.80563E+00
  0.21875E+00  0.80141E+00
  0.22125E+00  0.79714E+00
  0.22375E+00  0.79282E+00
  0.22625E+00  0.78844E+00
  0.22875E+00  0.78402E+00
  0.23125E+00  0.77954E+00
  0.23375E+00  0.77502E+00
  0.23625E+00  0.77044E+00
  0.23875E+00  0.76582E+00
  0.24125E+00  0.76114E+00
  0.24375E+00  0.75642E+00
  0.24625E+00  0.75165E+00
  0.24875E+00  0.74683E+00
  0.25125E+00  0.74196E+00
  0.25375E+00  0.73705E+00
  0.25625E+00  0.73208E+00
  0.25875E+00  0.72708E+00
  0.26125E+00  0.72203E+00
  0.26375E+00  0.71693E+00
  0.26625E+00  0.71179E+00
  0.26875E+00  0.70660E+00
  0.27125E+00  0.70138E+00
  0.27375E+00  0.69611E+00
  0.27625E+00  0.69080E+00
  0.27875E+00  0.68544E+00
  0.28125E+00  0.68005E+00
  0.28375E+00  0.67462E+00
  0.28625E+00  0.66915E+00
  0.28875E+00  0.66364E+00
  0.29125E+00  0.65810E+00
  0.29375E+00  0.65252E+00
  0.29625E+00  0.64691E+00
  0.29875E+00  0.64126E+00
  0.30125E+00  0.63557E+00
  0.30375E+00  0.62986E+00
  0.30625E+00  0.62411E+00
  0.30875E+00  0.61834E+00
  0.31125E+00  0.61253E+00
  0.31375E+00  0.60669E+00
  0.31625E+00  0.60083E+00
  0.31875E+00  0.59494E+00
  0.32125E+00  0.58903E+00
  0.32375E+00  0.58309E+00
  0.32625E+00  0.57713E+00
  0.32875E+00  0.57114E+00
  0.33125E+00  0.56514E+00
  0.33375E+00  0.55911E+00
  0.33625E+00  0.55307E+00
  0.33875E+00  0.54701E+00
  0.34125E+00  0.54093E+00
  0.34375E+00  0.53484E+00
  0.34625E+00  0.52873E+00
  0.34875E+00  0.52262E+00
  0.35125E+00  0.51649E+00
  0.35375E+00  0.51035E+00
  0.35625E+00  0.50420E+00
  0.35875E+00  0.49804E+00
  0.36125E+00  0.49188E+00
  0.36375E+00  0.48571E+00
  0.36625E+00  0.47954E+00
  0.36875E+00  0.47336E+00
  0.37125E+00  0.46719E+00
  0.37375E+00  0.46102E+00
  0.37625E+00  0.45484E+00
  0.37875E+00  0.44867E+00
  0.38125E+00  0.44251E+00
  0.38375E+00  0.43635E+00
  0.38625E+00  0.43020E+00
  0.38875E+00  0.42406E+00
  0.39125E+00  0.41792E+00
  0.39375E+00  0.41180E+00
  0.39625E+00  0.40569E+00
  0.39875E+00  0.39960E+00
  0.40125E+00  0.39352E+00
  0.40375E+00  0.38745E+00
  0.40625E+00  0.38141E+00
  0.40875E+00  0.37539E+00
  0.41125E+00  0.36938E+00
  0.41375E+00  0.36340E+00
  0.41625E+00  0.35744E+00
  0.41875E+00  0.35151E+00
  0.42125E+00  0.34561E+00
  0.42375E+00  0.33973E+00
  0.42625E+00  0.33388E+00
  0.42875E+00  0.32806E+00
  0.43125E+00  0.32227E+00
  0.43375E+00  0.31652E+00
  0.43625E+00  0.31080E+00
  0.43875E+00  0.30511E+00
  0.44125E+00  0.29947E+00
  0.44375E+00  0.29386E+00
  0.44625E+00  0.28829E+00
  0.44875E+00  0.28276E+00
  0.45125E+00  0.27727E+00
  0.45375E+00  0.27182E+00
  0.45625E+00  0.26642E+00
  0.45875E+00  0.26106E+00
  0.46125E+00  0.25575E+00
  0.46375E+00  0.25049E+00
  0.46625E+00  0.24527E+00
  0.46875E+00  0.24011E+00
  0.47125E+00  0.23499E+00
  0.47375E+00  0.22992E+00
  0.47625E+00  0.22491E+00
  0.47875E+00  0.21995E+00
  0.48125E+00  0.21504E+00
  0.48375E+00  0.21019E+00
  0.48625E+00  0.20539E+00
  0.48875E+00  0.20065E+00
  0.49125E+00  0.19597E+00
  0.49375E+00  0.19134E+00
  0.49625E+00  0.18678E+00
  0.49875E+00  0.18227E+00
  0.50125E+00  0.17782E+00
  0.50375E+00  0.17343E+00
  0.50625E+00  0.16910E+00
  0.50875E+00  0.16483E+00
  0.51125E+00  0.16062E+00
  0.51375E+00  0.15648E+00
  0.51625E+00  0.15240E+00
  0.51875E+00  0.14838E+00
  0.52125E+00  0.14442E+00
  0.52375E+00  0.14053E+00
  0.52625E+00  0.13670E+00
  0.52875E+00  0.13294E+00
  0.53125E+00  0.12924E+00
  0.53375E+00  0.12560E+00
  0.53625E+00  0.12203E+00
  0.53875E+00  0.11852E+00
  0.54125E+00  0.11508E+00
  0.54375E+00  0.11170E+00
  0.54625E+00  0.10839E+00
  0.54875E+00  0.10513E+00
  0.55125E+00  0.10195E+00
  0.55375E+00  0.98826E-01
  0.55625E+00  0.95767E-01
  0.55875E+00  0.92772E-01
  0.56125E+00  0.89841E-01
  0.56375E+00  0.86972E-01
  0.56625E+00  0.84166E-01
  0.56875E+00  0.81422E-01
  0.57125E+00  0.78741E-01
  0.57375E+00  0.76121E-01
  0.57625E+00  0.73562E-01
  0.57875E+00  0.71064E-01
  0.58125E+00  0.68626E-01
  0.58375E+00  0.66247E-01
  0.58625E+00  0.63928E-01
  0.58875E+00  0.61667E-01
  0.59125E+00  0.59465E-01
  0.59375E+00  0.57319E-01
  0.59625E+00  0.55230E-01
  0.59875E+00  0.53197E-01
  0.60125E+00  0.51219E-01
  0.60375E+00  0.49296E-01
  0.60625E+00  0.47427E-01
  0.60875E+00  0.45611E-01
  0.61125E+00  0.43847E-01
  0.61375E+00  0.42134E-01
  0.61625E+00  0.40473E-01
  0.61875E+00  0.38861E-01
  0.62125E+00  0.37298E-01
  0.62375E+00  0.35784E-01
  0.62625E+00  0.34317E-01
  0.62875E+00  0.32896E-01
  0.63125E+00  0.31521E-01
  0.63375E+00  0.30191E-01
  0.63625E+00  0.28905E-01
  0.63875E+00  0.27661E-01
  0.64125E+00  0.26460E-01
  0.64375E+00  0.25300E-01
  0.64625E+00  0.24181E-01
  0.64875E+00  0.23100E-01
  0.65125E+00  0.22059E-01
  0.65375E+00  0.21055E-01
  0.65625E+00  0.20087E-01
  0.65875E+00  0.19156E-01
  0.66125E+00  0.18259E-01
  0.66375E+00  0.17397E-01
  0.66625E+00  0.16567E-01
  0.66875E+00  0.15770E-01
  0.67125E+00  0.15004E-01
  0.67375E+00  0.14268E-01
  0.67625E+00  0.13563E-01
  0.67875E+00  0.12886E-01
  0.68125E+00  0.12237E-01
  0.68375E+00  0.11615E-01
  0.68625E+00  0.11019E-01
  0.68875E+00  0.10448E-01
  0.69125E+00  0.99028E-02
  0.69375E+00  0.93809E-02
  0.69625E+00  0.88822E-02
  0.69875E+00  0.84057E-02
  0.70125E+00  0.79507E-02
  0.70375E+00  0.75166E-02
  0.70625E+00  0.71025E-02
  0.70875E+00  0.67078E-02
  0.71125E+00  0.63317E-02
  0.71375E+00  0.59735E-02
  0.71625E+00  0.56327E-02
  0.71875E+00  0.53085E-02
  0.72125E+00  0.50003E-02
  0.72375E+00  0.47074E-02
  0.72625E+00  0.44293E-02
  0.72875E+00  0.41654E-02
  0.73125E+00  0.39151E-02
  0.73375E+00  0.36778E-02
  0.73625E+00  0.34529E-02
  0.73875E+00  0.32400E-02
  0.74125E+00  0.30385E-02
  0.74375E+00  0.28479E-02
  0.74625E+00  0.26678E-02
  0.74875E+00  0.24976E-02
  0.75125E+00  0.23370E-02
  0.75375E+00  0.21854E-02
  0.75625E+00  0.20424E-02
  0.75875E+00  0.19077E-02
  0.76125E+00  0.17808E-02
  0.76375E+00  0.16614E-02
  0.76625E+00  0.15491E-02
  0.76875E+00  0.14434E-02
  0.77125E+00  0.13442E-02
  0.77375E+00  0.12510E-02
  0.77625E+00  0.11636E-02
  0.77875E+00  0.10816E-02
  0.78125E+00  0.10048E-02
  0.78375E+00  0.93286E-03
  0.78625E+00  0.86552E-03
  0.78875E+00  0.80253E-03
  0.79125E+00  0.74366E-03
  0.79375E+00  0.68866E-03
  0.79625E+00  0.63732E-03
  0.79875E+00  0.58943E-03
  0.80125E+00  0.54479E-03
  0.80375E+00  0.50319E-03
  0.80625E+00  0.46447E-03
  0.80875E+00  0.42844E-03
  0.81125E+00  0.39495E-03
  0.81375E+00  0.36382E-03
  0.81625E+00  0.33493E-03
  0.81875E+00  0.30812E-03
  0.82125E+00  0.28327E-03
  0.82375E+00  0.26024E-03
  0.82625E+00  0.23892E-03
  0.82875E+00  0.21920E-03
  0.83125E+00  0.20096E-03
  0.83375E+00  0.18411E-03
  0.83625E+00  0.16856E-03
  0.83875E+00  0.15421E-03
  0.84125E+00  0.14098E-03
  0.84375E+00  0.12879E-03
  0.84625E+00  0.11757E-03
  0.84875E+00  0.10725E-03
  0.85125E+00  0.97771E-04
  0.85375E+00  0.89060E-04
  0.85625E+00  0.81066E-04
  0.85875E+00  0.73735E-04
  0.86125E+00  0.67017E-04
  0.86375E+00  0.60865E-04
  0.86625E+00  0.55236E-04
  0.86875E+00  0.50090E-04
  0.87125E+00  0.45389E-04
  0.87375E+00  0.41098E-04
  0.87625E+00  0.37183E-04
  0.87875E+00  0.33616E-04
  0.88125E+00  0.30367E-04
  0.88375E+00  0.27411E-04
  0.88625E+00  0.24723E-04
  0.88875E+00  0.22281E-04
  0.89125E+00  0.20064E-04
  0.89375E+00  0.18053E-04
  0.89625E+00  0.16231E-04
  0.89875E+00  0.14581E-04
  0.90125E+00  0.13088E-04
  0.90375E+00  0.11739E-04
  0.90625E+00  0.10519E-04
  0.90875E+00  0.94190E-05
  0.91125E+00  0.84268E-05
  0.91375E+00  0.75328E-05
  0.91625E+00  0.67280E-05
  0.91875E+00  0.60040E-05
  0.92125E+00  0.53534E-05
  0.92375E+00  0.47692E-05
  0.92625E+00  0.42451E-05
  0.92875E+00  0.37752E-05
  0.93125E+00  0.33544E-05
  0.93375E+00  0.29779E-05
  0.93625E+00  0.26412E-05
  0.93875E+00  0.23404E-05
  0.94125E+00  0.20718E-05
  0.94375E+00  0.18324E-05
  0.94625E+00  0.16189E-05
  0.94875E+00  0.14289E-05
  0.95125E+00  0.12598E-05
  0.95375E+00  0.11093E-05
  0.95625E+00  0.97566E-06
  0.95875E+00  0.85690E-06
  0.96125E+00  0.75144E-06
  0.96375E+00  0.65780E-06
  0.96625E+00  0.57465E-06
  0.96875E+00  0.50078E-06
  0.97125E+00  0.43512E-06
  0.97375E+00  0.37668E-06
  0.97625E+00  0.32455E-06
  0.97875E+00  0.27794E-06
  0.98125E+00  0.23609E-06
  0.98375E+00  0.19832E-06
  0.98625E+00  0.16401E-06
  0.98875E+00  0.13258E-06
  0.99125E+00  0.10348E-06
  0.99375E+00  0.76189E-07
  0.99625E+00  0.50218E-07
  0.99875E+00  0.25084E-07
