 TITLE=RHEsVARIABLES=="X","DENSITY"
 ZONE I=         400
  0.12500E-02  0.99571E+00
  0.37500E-02  0.99432E+00
  0.62500E-02  0.99300E+00
  0.87500E-02  0.99170E+00
  0.11250E-01  0.99041E+00
  0.13750E-01  0.98913E+00
  0.16250E-01  0.98784E+00
  0.18750E-01  0.98654E+00
  0.21250E-01  0.98524E+00
  0.23750E-01  0.98392E+00
  0.26250E-01  0.98259E+00
  0.28750E-01  0.98125E+00
  0.31250E-01  0.97989E+00
  0.33750E-01  0.97852E+00
  0.36250E-01  0.97712E+00
  0.38750E-01  0.97571E+00
  0.41250E-01  0.97427E+00
  0.43750E-01  0.97282E+00
  0.46250E-01  0.97133E+00
  0.48750E-01  0.96982E+00
  0.51250E-01  0.96829E+00
  0.53750E-01  0.96672E+00
  0.56250E-01  0.96513E+00
  0.58750E-01  0.96351E+00
  0.61250E-01  0.96185E+00
  0.63750E-01  0.96016E+00
  0.66250E-01  0.95844E+00
  0.68750E-01  0.95668E+00
  0.71250E-01  0.95489E+00
  0.73750E-01  0.95305E+00
  0.76250E-01  0.95118E+00
  0.78750E-01  0.94927E+00
  0.81250E-01  0.94732E+00
  0.83750E-01  0.94533E+00
  0.86250E-01  0.94329E+00
  0.88750E-01  0.94121E+00
  0.91250E-01  0.93908E+00
  0.93750E-01  0.93691E+00
  0.96250E-01  0.93469E+00
  0.98750E-01  0.93243E+00
  0.10125E+00  0.93011E+00
  0.10375E+00  0.92775E+00
  0.10625E+00  0.92533E+00
  0.10875E+00  0.92287E+00
  0.11125E+00  0.92035E+00
  0.11375E+00  0.91778E+00
  0.11625E+00  0.91516E+00
  0.11875E+00  0.91248E+00
  0.12125E+00  0.90975E+00
  0.12375E+00  0.90697E+00
  0.12625E+00  0.90413E+00
  0.12875E+00  0.90123E+00
  0.13125E+00  0.89828E+00
  0.13375E+00  0.89526E+00
  0.13625E+00  0.89220E+00
  0.13875E+00  0.88907E+00
  0.14125E+00  0.88588E+00
  0.14375E+00  0.88264E+00
  0.14625E+00  0.87933E+00
  0.14875E+00  0.87597E+00
  0.15125E+00  0.87255E+00
  0.15375E+00  0.86906E+00
  0.15625E+00  0.86552E+00
  0.15875E+00  0.86191E+00
  0.16125E+00  0.85825E+00
  0.16375E+00  0.85452E+00
  0.16625E+00  0.85073E+00
  0.16875E+00  0.84688E+00
  0.17125E+00  0.84297E+00
  0.17375E+00  0.83899E+00
  0.17625E+00  0.83496E+00
  0.17875E+00  0.83087E+00
  0.18125E+00  0.82671E+00
  0.18375E+00  0.82249E+00
  0.18625E+00  0.81821E+00
  0.18875E+00  0.81387E+00
  0.19125E+00  0.80947E+00
  0.19375E+00  0.80501E+00
  0.19625E+00  0.80048E+00
  0.19875E+00  0.79590E+00
  0.20125E+00  0.79126E+00
  0.20375E+00  0.78656E+00
  0.20625E+00  0.78180E+00
  0.20875E+00  0.77698E+00
  0.21125E+00  0.77210E+00
  0.21375E+00  0.76716E+00
  0.21625E+00  0.76217E+00
  0.21875E+00  0.75712E+00
  0.22125E+00  0.75201E+00
  0.22375E+00  0.74685E+00
  0.22625E+00  0.74163E+00
  0.22875E+00  0.73636E+00
  0.23125E+00  0.73103E+00
  0.23375E+00  0.72565E+00
  0.23625E+00  0.72022E+00
  0.23875E+00  0.71474E+00
  0.24125E+00  0.70920E+00
  0.24375E+00  0.70362E+00
  0.24625E+00  0.69798E+00
  0.24875E+00  0.69230E+00
  0.25125E+00  0.68657E+00
  0.25375E+00  0.68079E+00
  0.25625E+00  0.67497E+00
  0.25875E+00  0.66910E+00
  0.26125E+00  0.66319E+00
  0.26375E+00  0.65723E+00
  0.26625E+00  0.65124E+00
  0.26875E+00  0.64520E+00
  0.27125E+00  0.63912E+00
  0.27375E+00  0.63301E+00
  0.27625E+00  0.62686E+00
  0.27875E+00  0.62067E+00
  0.28125E+00  0.61445E+00
  0.28375E+00  0.60819E+00
  0.28625E+00  0.60191E+00
  0.28875E+00  0.59559E+00
  0.29125E+00  0.58924E+00
  0.29375E+00  0.58287E+00
  0.29625E+00  0.57646E+00
  0.29875E+00  0.57004E+00
  0.30125E+00  0.56358E+00
  0.30375E+00  0.55711E+00
  0.30625E+00  0.55061E+00
  0.30875E+00  0.54410E+00
  0.31125E+00  0.53757E+00
  0.31375E+00  0.53102E+00
  0.31625E+00  0.52445E+00
  0.31875E+00  0.51788E+00
  0.32125E+00  0.51129E+00
  0.32375E+00  0.50469E+00
  0.32625E+00  0.49808E+00
  0.32875E+00  0.49146E+00
  0.33125E+00  0.48484E+00
  0.33375E+00  0.47822E+00
  0.33625E+00  0.47159E+00
  0.33875E+00  0.46497E+00
  0.34125E+00  0.45834E+00
  0.34375E+00  0.45172E+00
  0.34625E+00  0.44510E+00
  0.34875E+00  0.43849E+00
  0.35125E+00  0.43189E+00
  0.35375E+00  0.42529E+00
  0.35625E+00  0.41871E+00
  0.35875E+00  0.41214E+00
  0.36125E+00  0.40559E+00
  0.36375E+00  0.39905E+00
  0.36625E+00  0.39253E+00
  0.36875E+00  0.38603E+00
  0.37125E+00  0.37955E+00
  0.37375E+00  0.37310E+00
  0.37625E+00  0.36667E+00
  0.37875E+00  0.36027E+00
  0.38125E+00  0.35389E+00
  0.38375E+00  0.34755E+00
  0.38625E+00  0.34124E+00
  0.38875E+00  0.33496E+00
  0.39125E+00  0.32871E+00
  0.39375E+00  0.32251E+00
  0.39625E+00  0.31634E+00
  0.39875E+00  0.31021E+00
  0.40125E+00  0.30412E+00
  0.40375E+00  0.29808E+00
  0.40625E+00  0.29207E+00
  0.40875E+00  0.28612E+00
  0.41125E+00  0.28021E+00
  0.41375E+00  0.27435E+00
  0.41625E+00  0.26854E+00
  0.41875E+00  0.26279E+00
  0.42125E+00  0.25708E+00
  0.42375E+00  0.25143E+00
  0.42625E+00  0.24583E+00
  0.42875E+00  0.24029E+00
  0.43125E+00  0.23481E+00
  0.43375E+00  0.22939E+00
  0.43625E+00  0.22403E+00
  0.43875E+00  0.21872E+00
  0.44125E+00  0.21349E+00
  0.44375E+00  0.20831E+00
  0.44625E+00  0.20320E+00
  0.44875E+00  0.19815E+00
  0.45125E+00  0.19317E+00
  0.45375E+00  0.18825E+00
  0.45625E+00  0.18341E+00
  0.45875E+00  0.17863E+00
  0.46125E+00  0.17392E+00
  0.46375E+00  0.16928E+00
  0.46625E+00  0.16471E+00
  0.46875E+00  0.16021E+00
  0.47125E+00  0.15578E+00
  0.47375E+00  0.15142E+00
  0.47625E+00  0.14714E+00
  0.47875E+00  0.14293E+00
  0.48125E+00  0.13879E+00
  0.48375E+00  0.13472E+00
  0.48625E+00  0.13073E+00
  0.48875E+00  0.12681E+00
  0.49125E+00  0.12297E+00
  0.49375E+00  0.11920E+00
  0.49625E+00  0.11550E+00
  0.49875E+00  0.11188E+00
  0.50125E+00  0.10833E+00
  0.50375E+00  0.10486E+00
  0.50625E+00  0.10145E+00
  0.50875E+00  0.98125E-01
  0.51125E+00  0.94869E-01
  0.51375E+00  0.91687E-01
  0.51625E+00  0.88577E-01
  0.51875E+00  0.85538E-01
  0.52125E+00  0.82572E-01
  0.52375E+00  0.79677E-01
  0.52625E+00  0.76852E-01
  0.52875E+00  0.74098E-01
  0.53125E+00  0.71413E-01
  0.53375E+00  0.68798E-01
  0.53625E+00  0.66250E-01
  0.53875E+00  0.63771E-01
  0.54125E+00  0.61358E-01
  0.54375E+00  0.59012E-01
  0.54625E+00  0.56731E-01
  0.54875E+00  0.54515E-01
  0.55125E+00  0.52362E-01
  0.55375E+00  0.50273E-01
  0.55625E+00  0.48246E-01
  0.55875E+00  0.46279E-01
  0.56125E+00  0.44373E-01
  0.56375E+00  0.42526E-01
  0.56625E+00  0.40738E-01
  0.56875E+00  0.39007E-01
  0.57125E+00  0.37332E-01
  0.57375E+00  0.35712E-01
  0.57625E+00  0.34147E-01
  0.57875E+00  0.32634E-01
  0.58125E+00  0.31174E-01
  0.58375E+00  0.29765E-01
  0.58625E+00  0.28405E-01
  0.58875E+00  0.27095E-01
  0.59125E+00  0.25832E-01
  0.59375E+00  0.24616E-01
  0.59625E+00  0.23445E-01
  0.59875E+00  0.22319E-01
  0.60125E+00  0.21236E-01
  0.60375E+00  0.20195E-01
  0.60625E+00  0.19196E-01
  0.60875E+00  0.18236E-01
  0.61125E+00  0.17316E-01
  0.61375E+00  0.16433E-01
  0.61625E+00  0.15586E-01
  0.61875E+00  0.14776E-01
  0.62125E+00  0.14000E-01
  0.62375E+00  0.13258E-01
  0.62625E+00  0.12548E-01
  0.62875E+00  0.11869E-01
  0.63125E+00  0.11221E-01
  0.63375E+00  0.10603E-01
  0.63625E+00  0.10013E-01
  0.63875E+00  0.94503E-02
  0.64125E+00  0.89142E-02
  0.64375E+00  0.84037E-02
  0.64625E+00  0.79179E-02
  0.64875E+00  0.74557E-02
  0.65125E+00  0.70165E-02
  0.65375E+00  0.65992E-02
  0.65625E+00  0.62030E-02
  0.65875E+00  0.58271E-02
  0.66125E+00  0.54706E-02
  0.66375E+00  0.51329E-02
  0.66625E+00  0.48130E-02
  0.66875E+00  0.45103E-02
  0.67125E+00  0.42240E-02
  0.67375E+00  0.39534E-02
  0.67625E+00  0.36978E-02
  0.67875E+00  0.34566E-02
  0.68125E+00  0.32290E-02
  0.68375E+00  0.30145E-02
  0.68625E+00  0.28123E-02
  0.68875E+00  0.26221E-02
  0.69125E+00  0.24431E-02
  0.69375E+00  0.22748E-02
  0.69625E+00  0.21167E-02
  0.69875E+00  0.19683E-02
  0.70125E+00  0.18290E-02
  0.70375E+00  0.16984E-02
  0.70625E+00  0.15761E-02
  0.70875E+00  0.14616E-02
  0.71125E+00  0.13545E-02
  0.71375E+00  0.12543E-02
  0.71625E+00  0.11608E-02
  0.71875E+00  0.10734E-02
  0.72125E+00  0.99196E-03
  0.72375E+00  0.91602E-03
  0.72625E+00  0.84528E-03
  0.72875E+00  0.77944E-03
  0.73125E+00  0.71820E-03
  0.73375E+00  0.66129E-03
  0.73625E+00  0.60844E-03
  0.73875E+00  0.55940E-03
  0.74125E+00  0.51393E-03
  0.74375E+00  0.47179E-03
  0.74625E+00  0.43279E-03
  0.74875E+00  0.39671E-03
  0.75125E+00  0.36335E-03
  0.75375E+00  0.33255E-03
  0.75625E+00  0.30412E-03
  0.75875E+00  0.27790E-03
  0.76125E+00  0.25374E-03
  0.76375E+00  0.23150E-03
  0.76625E+00  0.21104E-03
  0.76875E+00  0.19224E-03
  0.77125E+00  0.17497E-03
  0.77375E+00  0.15912E-03
  0.77625E+00  0.14459E-03
  0.77875E+00  0.13128E-03
  0.78125E+00  0.11910E-03
  0.78375E+00  0.10795E-03
  0.78625E+00  0.97773E-04
  0.78875E+00  0.88477E-04
  0.79125E+00  0.79997E-04
  0.79375E+00  0.72268E-04
  0.79625E+00  0.65231E-04
  0.79875E+00  0.58828E-04
  0.80125E+00  0.53007E-04
  0.80375E+00  0.47721E-04
  0.80625E+00  0.42925E-04
  0.80875E+00  0.38577E-04
  0.81125E+00  0.34638E-04
  0.81375E+00  0.31074E-04
  0.81625E+00  0.27852E-04
  0.81875E+00  0.24941E-04
  0.82125E+00  0.22314E-04
  0.82375E+00  0.19946E-04
  0.82625E+00  0.17813E-04
  0.82875E+00  0.15893E-04
  0.83125E+00  0.14167E-04
  0.83375E+00  0.12616E-04
  0.83625E+00  0.11225E-04
  0.83875E+00  0.99780E-05
  0.84125E+00  0.88610E-05
  0.84375E+00  0.78615E-05
  0.84625E+00  0.69680E-05
  0.84875E+00  0.61702E-05
  0.85125E+00  0.54584E-05
  0.85375E+00  0.48240E-05
  0.85625E+00  0.42592E-05
  0.85875E+00  0.37568E-05
  0.86125E+00  0.33103E-05
  0.86375E+00  0.29140E-05
  0.86625E+00  0.25626E-05
  0.86875E+00  0.22513E-05
  0.87125E+00  0.19758E-05
  0.87375E+00  0.17323E-05
  0.87625E+00  0.15172E-05
  0.87875E+00  0.13275E-05
  0.88125E+00  0.11602E-05
  0.88375E+00  0.10130E-05
  0.88625E+00  0.88358E-06
  0.88875E+00  0.76986E-06
  0.89125E+00  0.67007E-06
  0.89375E+00  0.58259E-06
  0.89625E+00  0.50599E-06
  0.89875E+00  0.43899E-06
  0.90125E+00  0.38045E-06
  0.90375E+00  0.32936E-06
  0.90625E+00  0.28482E-06
  0.90875E+00  0.24603E-06
  0.91125E+00  0.21229E-06
  0.91375E+00  0.18298E-06
  0.91625E+00  0.15753E-06
  0.91875E+00  0.13548E-06
  0.92125E+00  0.11638E-06
  0.92375E+00  0.99855E-07
  0.92625E+00  0.85582E-07
  0.92875E+00  0.73266E-07
  0.93125E+00  0.62650E-07
  0.93375E+00  0.53510E-07
  0.93625E+00  0.45650E-07
  0.93875E+00  0.38899E-07
  0.94125E+00  0.33107E-07
  0.94375E+00  0.28144E-07
  0.94625E+00  0.23896E-07
  0.94875E+00  0.20265E-07
  0.95125E+00  0.17163E-07
  0.95375E+00  0.14518E-07
  0.95625E+00  0.12265E-07
  0.95875E+00  0.10347E-07
  0.96125E+00  0.87162E-08
  0.96375E+00  0.73312E-08
  0.96625E+00  0.61557E-08
  0.96875E+00  0.51587E-08
  0.97125E+00  0.43133E-08
  0.97375E+00  0.35965E-08
  0.97625E+00  0.29884E-08
  0.97875E+00  0.24717E-08
  0.98125E+00  0.20316E-08
  0.98375E+00  0.16553E-08
  0.98625E+00  0.13313E-08
  0.98875E+00  0.10500E-08
  0.99125E+00  0.80252E-09
  0.99375E+00  0.58099E-09
  0.99625E+00  0.37823E-09
  0.99875E+00  0.18749E-09
